Date,Open,High,Low,Close,Adj Close,Volume
2019-06-03,113.41000366210938,115.0,113.41000366210938,114.02999877929688,111.672119140625,297400
2019-06-04,114.69999694824219,115.9800033569336,113.68000030517578,115.72000122070312,113.32717895507812,483400
2019-06-05,115.9000015258789,117.18000030517578,115.41000366210938,117.12999725341797,114.70801544189453,392000
2019-06-06,117.20999908447266,120.38999938964844,117.20999908447266,120.2300033569336,117.74393463134766,319800
2019-06-07,120.0,122.5999984741211,119.91999816894531,121.91999816894531,119.39897155761719,427800
2019-06-10,122.19000244140625,123.27999877929688,121.62999725341797,123.22000122070312,120.67210388183594,253200
2019-06-11,124.0,124.44999694824219,121.20999908447266,122.58000183105469,120.04533386230469,365600
2019-06-12,122.98999786376953,122.98999786376953,121.19000244140625,121.62000274658203,119.10517883300781,273400
2019-06-13,121.5,122.0999984741211,120.30999755859375,120.72000122070312,118.22379302978516,166500
2019-06-14,120.45999908447266,120.51000213623047,119.56999969482422,120.08999633789062,117.60681915283203,187300
2019-06-17,120.04000091552734,120.83999633789062,119.79000091552734,120.16999816894531,117.6851577758789,136300
2019-06-18,120.58999633789062,120.69999694824219,119.37999725341797,119.48999786376953,117.01921844482422,208300
2019-06-19,119.62999725341797,120.0,118.81999969482422,119.41000366210938,116.94088745117188,340200
2019-06-20,120.88999938964844,121.0,118.27999877929688,119.80999755859375,117.33261108398438,335100
2019-06-21,119.31999969482422,119.8499984741211,117.43000030517578,119.37999725341797,116.91150665283203,603600
2019-06-24,119.5,119.5,118.4800033569336,118.77999877929688,116.32390594482422,187700
2019-06-25,119.0,121.79000091552734,118.87999725341797,121.05999755859375,118.55674743652344,300700
2019-06-26,121.23999786376953,121.25,119.0999984741211,119.23999786376953,116.77439880371094,236700
2019-06-27,119.38999938964844,121.80999755859375,119.38999938964844,121.55000305175781,119.03662872314453,247700
2019-06-28,121.62000274658203,124.75,121.62000274658203,124.33999633789062,121.76892852783203,831100
2019-07-01,125.0,126.19999694824219,123.12000274658203,124.2699966430664,121.70038604736328,322000
2019-07-02,124.37000274658203,124.70999908447266,123.22000122070312,123.54000091552734,120.98548889160156,402400
2019-07-03,124.0,125.91999816894531,124.0,125.91999816894531,123.3162612915039,188600
2019-07-05,125.20999908447266,125.26000213623047,123.01000213623047,124.61000061035156,122.03336334228516,255300
2019-07-08,125.5,125.5,123.63999938964844,123.98999786376953,121.42617797851562,199600
2019-07-09,123.79000091552734,124.52999877929688,123.79000091552734,124.06999969482422,121.50452423095703,235000
2019-07-10,124.62999725341797,125.79000091552734,123.3499984741211,123.58000183105469,121.02465057373047,169900
2019-07-11,123.2699966430664,124.12000274658203,123.01000213623047,124.0199966430664,121.45555114746094,226400
2019-07-12,124.19000244140625,124.19000244140625,123.20999908447266,123.41000366210938,120.85816955566406,241000
2019-07-15,123.1500015258789,123.95999908447266,122.69000244140625,122.91999816894531,120.3782958984375,189600
2019-07-16,123.12000274658203,123.36000061035156,122.30000305175781,123.16000366210938,120.61334228515625,230800
2019-07-17,123.12000274658203,124.43000030517578,123.12000274658203,123.52999877929688,120.9756851196289,267300
2019-07-18,123.1500015258789,124.44999694824219,123.02999877929688,124.36000061035156,121.78852844238281,173900
2019-07-19,124.70999908447266,124.94999694824219,123.36000061035156,123.4000015258789,120.84837341308594,226000
2019-07-22,123.51000213623047,123.88999938964844,122.81999969482422,123.16000366210938,120.61334228515625,153800
2019-07-23,123.88999938964844,124.70999908447266,123.37999725341797,124.51000213623047,121.9354248046875,183600
2019-07-24,124.01000213623047,124.55000305175781,122.83999633789062,123.29000091552734,120.74065399169922,215300
2019-07-25,123.0,124.27999877929688,122.68000030517578,122.91999816894531,120.3782958984375,273700
2019-07-26,123.12999725341797,124.7699966430664,122.93000030517578,124.48999786376953,121.91583251953125,198000
2019-07-29,124.44999694824219,125.66000366210938,123.54000091552734,124.94000244140625,122.35652923583984,277400
2019-07-30,123.80000305175781,124.56999969482422,122.95999908447266,123.80999755859375,121.60027313232422,221700
2019-07-31,123.48999786376953,123.86000061035156,119.94000244140625,121.0199966430664,118.86006927490234,621400
2019-08-01,120.19000244140625,120.19000244140625,114.83999633789062,117.55999755859375,115.46183013916016,533000
2019-08-02,116.61000061035156,118.33999633789062,115.6500015258789,118.0199966430664,115.91361999511719,316600
2019-08-05,116.44000244140625,119.02999877929688,116.25,117.08000183105469,114.99039459228516,462500
2019-08-06,117.55000305175781,120.80999755859375,117.37999725341797,119.72000122070312,117.58328247070312,356400
2019-08-07,119.0999984741211,122.26000213623047,118.69999694824219,121.66000366210938,119.4886474609375,268700
2019-08-08,122.4800033569336,124.0,121.58999633789062,122.87000274658203,120.67706298828125,374300
2019-08-09,122.73999786376953,123.2300033569336,121.05000305175781,121.08000183105469,118.91899871826172,186400
2019-08-12,121.0199966430664,121.68000030517578,119.91999816894531,120.0199966430664,117.87791442871094,135600
2019-08-13,119.77999877929688,121.80999755859375,119.05000305175781,121.22000122070312,119.05651092529297,216300
2019-08-14,120.01000213623047,120.7300033569336,118.98999786376953,119.08999633789062,116.96451568603516,375800
2019-08-15,119.25,120.25,117.94999694824219,118.33000183105469,116.21808624267578,238400
2019-08-16,118.91000366210938,120.73999786376953,117.94999694824219,120.25,118.10382080078125,197800
2019-08-19,121.19999694824219,121.4800033569336,120.0,120.22000122070312,118.07434844970703,206400
2019-08-20,120.0999984741211,120.0999984741211,118.45999908447266,118.87999725341797,116.75827026367188,141800
2019-08-21,119.66000366210938,119.83000183105469,118.88999938964844,119.33000183105469,117.20024108886719,298500
2019-08-22,119.83000183105469,120.72000122070312,119.04000091552734,120.54000091552734,118.38863372802734,227100
2019-08-23,120.55000305175781,121.33000183105469,119.88999938964844,120.26000213623047,118.11363983154297,296100
2019-08-26,120.72000122070312,121.2300033569336,119.91000366210938,120.98999786376953,118.83060455322266,237100
2019-08-27,121.4800033569336,121.83000183105469,120.80999755859375,121.5,119.33149719238281,183000
2019-08-28,121.48999786376953,122.13999938964844,120.62999725341797,121.86000061035156,119.68506622314453,221100
2019-08-29,122.87999725341797,123.44000244140625,121.1500015258789,121.69000244140625,119.51811981201172,184600
2019-08-30,122.37999725341797,123.31999969482422,121.2300033569336,122.22000122070312,120.03865051269531,183700
2019-09-03,120.80999755859375,121.08000183105469,118.56999969482422,119.6500015258789,117.5145263671875,262000
2019-09-04,120.7300033569336,122.05000305175781,120.19000244140625,121.94000244140625,119.76365661621094,160800
2019-09-05,122.98999786376953,123.20999908447266,120.9800033569336,121.19999694824219,119.03685760498047,230100
2019-09-06,120.95999908447266,121.83999633789062,120.31999969482422,120.87999725341797,118.72257232666016,239300
2019-09-09,121.56999969482422,121.56999969482422,118.7699966430664,119.0999984741211,116.97433471679688,232900
2019-09-10,118.9800033569336,119.31999969482422,116.12000274658203,119.11000061035156,116.98416137695312,258200
2019-09-11,118.9000015258789,119.52999877929688,116.72000122070312,118.62999725341797,116.51272583007812,231700
2019-09-12,119.08000183105469,119.69999694824219,117.9800033569336,118.05000305175781,115.94308471679688,163300
2019-09-13,118.55000305175781,118.97000122070312,117.66000366210938,118.4000015258789,116.28683471679688,269900
2019-09-16,117.72000122070312,117.72000122070312,115.87000274658203,116.4800033569336,114.4011001586914,192100
2019-09-17,116.19999694824219,117.86000061035156,116.06999969482422,117.01000213623047,114.92163848876953,216700
2019-09-18,116.88999938964844,118.94999694824219,116.55999755859375,118.30000305175781,116.1886215209961,253400
2019-09-19,118.33000183105469,118.94999694824219,117.63999938964844,117.8499984741211,115.74664306640625,304200
2019-09-20,118.13999938964844,119.0199966430664,117.55999755859375,118.05000305175781,115.94308471679688,527900
2019-09-23,117.61000061035156,118.97000122070312,117.61000061035156,118.0999984741211,115.9921875,164300
2019-09-24,118.5999984741211,119.48999786376953,118.25,118.51000213623047,116.39486694335938,187100
2019-09-25,118.70999908447266,119.44000244140625,118.66999816894531,119.12000274658203,116.99398803710938,202100
2019-09-26,119.56999969482422,119.68000030517578,118.5199966430664,118.91999816894531,116.79755401611328,117900
2019-09-27,119.20999908447266,119.30999755859375,118.05999755859375,118.66999816894531,116.55201721191406,149100
2019-09-30,118.94999694824219,119.41000366210938,117.83999633789062,118.44999694824219,116.33592987060547,219700
2019-10-01,119.29000091552734,119.7300033569336,117.5,117.66999816894531,115.56985473632812,143300
2019-10-02,117.0,117.0199966430664,115.05999755859375,115.3499984741211,113.29127502441406,225600
2019-10-03,115.0,115.2300033569336,113.77999877929688,114.98999786376953,112.93769073486328,241100
2019-10-04,115.30999755859375,117.62000274658203,115.08999633789062,117.33000183105469,115.23593139648438,162400
2019-10-07,116.69000244140625,117.44999694824219,116.23999786376953,116.55999755859375,114.47967529296875,216100
2019-10-08,116.01000213623047,117.76000213623047,114.51000213623047,114.77999877929688,112.73143768310547,221900
2019-10-09,115.81999969482422,116.88999938964844,115.37999725341797,116.4800033569336,114.4011001586914,134700
2019-10-10,116.4800033569336,117.23999786376953,115.7300033569336,116.30999755859375,114.23413848876953,102400
2019-10-11,116.91999816894531,118.0,116.23999786376953,116.33000183105469,114.2537841796875,213700
2019-10-14,116.31999969482422,116.87999725341797,115.73999786376953,115.8499984741211,113.78233337402344,131900
2019-10-15,116.33999633789062,116.63999938964844,115.05000305175781,115.18000030517578,113.12430572509766,182500
2019-10-16,115.13999938964844,115.5999984741211,114.4000015258789,115.47000122070312,113.40913391113281,213700
2019-10-17,115.56999969482422,117.08000183105469,115.5,116.55000305175781,114.46985626220703,153800
2019-10-18,116.41999816894531,118.0,116.41999816894531,117.77999877929688,115.67789459228516,219100
2019-10-21,118.37000274658203,119.11000061035156,117.80000305175781,117.9000015258789,115.79576873779297,142900
2019-10-22,118.02999877929688,118.05000305175781,116.62000274658203,116.66000366210938,114.57789611816406,85400
2019-10-23,116.52999877929688,117.93000030517578,116.5,117.37000274658203,115.27522277832031,104800
2019-10-24,117.44999694824219,118.12999725341797,116.73999786376953,117.33999633789062,115.2457504272461,122500
2019-10-25,117.20999908447266,118.62000274658203,117.20999908447266,117.87999725341797,115.77611541748047,120300
2019-10-28,117.95999908447266,118.80000305175781,117.83999633789062,118.19999694824219,116.09040069580078,134100
2019-10-29,117.44999694824219,119.12999725341797,117.44999694824219,118.51000213623047,116.75045013427734,136600
2019-10-30,118.58000183105469,119.62999725341797,117.7699966430664,119.25,117.4794692993164,148200
2019-10-31,119.04000091552734,119.62999725341797,117.62000274658203,118.1500015258789,116.39580535888672,316000
2019-11-01,113.66999816894531,115.55999755859375,109.54000091552734,110.79000091552734,109.14507293701172,583300
2019-11-04,111.01000213623047,111.76000213623047,108.41000366210938,108.66999816894531,107.05654907226562,553700
2019-11-05,109.20999908447266,110.25,108.43000030517578,108.66000366210938,107.04669952392578,385300
2019-11-06,108.66999816894531,109.80999755859375,108.41999816894531,109.48999786376953,107.8643798828125,369800
2019-11-07,109.52999877929688,110.52999877929688,108.91000366210938,109.4000015258789,107.77571868896484,189400
2019-11-08,109.30999755859375,110.93000030517578,108.87000274658203,109.0,107.38165283203125,303500
2019-11-11,108.4800033569336,109.76000213623047,108.4800033569336,108.58000183105469,106.96788024902344,181500
2019-11-12,108.63999938964844,109.30000305175781,108.16000366210938,108.22000122070312,106.61322784423828,185400
2019-11-13,108.31999969482422,110.06999969482422,108.0199966430664,109.62000274658203,107.9924545288086,385400
2019-11-14,109.4800033569336,110.58000183105469,109.4800033569336,110.47000122070312,108.82982635498047,224000
2019-11-15,110.7300033569336,110.7300033569336,109.69999694824219,109.95999908447266,108.327392578125,307300
2019-11-18,109.91999816894531,110.94999694824219,109.87999725341797,110.33999633789062,108.70174407958984,352100
2019-11-19,110.7300033569336,111.4000015258789,110.44999694824219,110.5,108.85938262939453,258700
2019-11-20,110.12000274658203,111.8499984741211,110.12000274658203,110.69999694824219,109.05641174316406,961400
2019-11-21,111.2300033569336,112.05000305175781,110.18000030517578,111.30000305175781,109.64751434326172,244200
2019-11-22,111.6500015258789,111.66999816894531,110.0,110.12000274658203,108.48503112792969,151700
2019-11-25,110.26000213623047,111.05999755859375,110.16999816894531,110.94999694824219,109.30269622802734,264400
2019-11-26,111.5199966430664,112.6500015258789,110.97000122070312,112.55999755859375,110.88878631591797,221900
2019-11-27,112.98999786376953,113.58000183105469,112.62999725341797,112.83000183105469,111.15479278564453,145500
2019-11-29,112.63999938964844,113.20999908447266,111.94000244140625,112.12000274658203,110.45532989501953,89300
2019-12-02,112.5199966430664,112.72000122070312,111.62000274658203,112.01000213623047,110.34696960449219,273300
2019-12-03,111.51000213623047,113.30999755859375,111.13999938964844,112.70999908447266,111.03656768798828,246400
2019-12-04,112.73999786376953,113.4800033569336,111.73999786376953,111.77999877929688,110.12036895751953,284600
2019-12-05,111.88999938964844,112.66000366210938,111.6500015258789,111.94999694824219,110.28784942626953,243700
2019-12-06,112.79000091552734,113.0,111.80000305175781,112.08000183105469,110.41592407226562,322100
2019-12-09,112.30999755859375,112.83999633789062,111.69000244140625,112.62999725341797,110.95775604248047,255000
2019-12-10,112.47000122070312,112.83000183105469,111.33999633789062,111.94000244140625,110.27800750732422,219500
2019-12-11,111.97000122070312,112.7699966430664,111.9000015258789,112.56999969482422,110.89864349365234,141100
2019-12-12,112.51000213623047,114.44000244140625,112.51000213623047,114.18000030517578,112.48474884033203,407000
2019-12-13,113.9800033569336,115.38999938964844,113.33000183105469,113.97000122070312,112.27786254882812,380400
2019-12-16,114.45999908447266,114.70999908447266,113.30000305175781,114.31999969482422,112.6226577758789,194200
2019-12-17,114.12999725341797,114.75,113.05999755859375,113.3499984741211,111.66706085205078,248900
2019-12-18,113.3499984741211,113.37000274658203,112.36000061035156,113.08000183105469,111.40107727050781,204000
2019-12-19,113.16000366210938,113.4800033569336,112.80000305175781,113.26000213623047,111.57840728759766,172100
2019-12-20,113.72000122070312,115.13999938964844,113.72000122070312,114.95999908447266,113.25316619873047,473500
2019-12-23,114.93000030517578,115.37000274658203,114.2300033569336,115.37000274658203,113.6570816040039,144300
2019-12-24,115.30999755859375,115.63999938964844,114.68000030517578,114.7300033569336,113.02657318115234,63800
2019-12-26,114.73999786376953,114.86000061035156,113.80000305175781,114.81999969482422,113.11524200439453,110900
2019-12-27,115.22000122070312,115.3499984741211,114.1500015258789,115.0199966430664,113.3122787475586,87800
2019-12-30,114.94000244140625,115.80000305175781,114.66999816894531,115.76000213623047,114.0412826538086,193000
2019-12-31,115.72000122070312,116.19999694824219,115.0199966430664,115.62000274658203,113.90337371826172,310700
2020-01-02,115.5,116.4800033569336,112.93000030517578,113.68000030517578,111.9921646118164,362700
2020-01-03,112.80999755859375,114.83999633789062,112.80999755859375,114.04000091552734,112.34683227539062,221500
2020-01-06,113.66000366210938,114.48999786376953,113.55999755859375,114.05000305175781,112.35668182373047,282400
2020-01-07,113.55999755859375,114.01000213623047,112.73999786376953,112.91000366210938,111.23360443115234,234700
2020-01-08,113.08000183105469,114.18000030517578,113.08000183105469,113.22000122070312,111.53900146484375,331000
2020-01-09,113.7699966430664,115.05999755859375,113.31999969482422,114.66000366210938,112.95762634277344,329100
2020-01-10,114.66000366210938,116.16999816894531,114.56999969482422,115.79000091552734,114.07083892822266,196800
2020-01-13,115.48999786376953,116.55999755859375,115.37000274658203,116.19999694824219,114.4747543334961,248500
2020-01-14,116.25,116.31999969482422,115.13999938964844,116.12999725341797,114.40579223632812,160800
2020-01-15,116.31999969482422,117.2300033569336,115.9000015258789,116.70999908447266,114.9771728515625,241500
2020-01-16,117.20999908447266,118.2699966430664,117.18000030517578,118.22000122070312,116.46476745605469,187300
2020-01-17,118.30999755859375,118.61000061035156,117.05999755859375,117.31999969482422,115.57813262939453,190600
2020-01-21,116.66000366210938,116.7699966430664,115.3499984741211,115.62999725341797,113.91322326660156,189300
2020-01-22,115.69000244140625,116.43000030517578,115.4800033569336,115.66999816894531,113.9526138305664,141800
2020-01-23,115.33000183105469,119.0199966430664,114.7699966430664,117.37000274658203,115.62738800048828,301000
2020-01-24,117.4000015258789,118.16000366210938,116.62000274658203,117.12000274658203,115.38109588623047,213000
2020-01-27,115.54000091552734,117.26000213623047,115.22000122070312,116.48999786376953,114.76043701171875,239100
2020-01-28,116.41000366210938,116.58000183105469,115.56999969482422,115.97000122070312,114.60233306884766,178600
2020-01-29,115.91000366210938,117.08000183105469,115.52999877929688,115.94000244140625,114.57269287109375,211200
2020-01-30,115.0199966430664,117.01000213623047,114.33000183105469,116.54000091552734,115.16561126708984,153200
2020-01-31,115.91000366210938,116.38999938964844,115.13999938964844,115.51000213623047,114.14775085449219,300700
2020-02-03,115.61000061035156,117.54000091552734,115.51000213623047,117.23999786376953,115.85734558105469,271300
2020-02-04,117.79000091552734,118.48999786376953,116.19999694824219,116.94999694824219,115.57077026367188,313700
2020-02-05,117.13999938964844,118.29000091552734,116.75,117.87000274658203,116.47991943359375,188100
2020-02-06,118.05000305175781,118.94999694824219,117.45999908447266,117.52999877929688,116.14392852783203,247800
2020-02-07,117.06999969482422,117.68000030517578,116.22000122070312,116.69999694824219,115.32371520996094,144500
2020-02-10,116.41999816894531,117.0999984741211,115.4800033569336,115.80000305175781,114.43433380126953,142600
2020-02-11,116.0199966430664,116.88999938964844,115.4000015258789,116.05000305175781,114.681396484375,197600
2020-02-12,116.12999725341797,116.20999908447266,114.30000305175781,114.70999908447266,113.35719299316406,448200
2020-02-13,114.58000183105469,116.55000305175781,113.69000244140625,116.19999694824219,114.8296127319336,200400
2020-02-14,116.5999984741211,117.75,116.16999816894531,116.66999816894531,115.29407501220703,216800
2020-02-18,116.47000122070312,116.62999725341797,115.08000183105469,115.26000213623047,113.90071105957031,271300
2020-02-19,115.37000274658203,116.62000274658203,114.72000122070312,115.01000213623047,113.65364837646484,289200
2020-02-20,114.61000061035156,115.66999816894531,113.73999786376953,114.93000030517578,113.57460021972656,378400
2020-02-21,111.5199966430664,114.6500015258789,109.16000366210938,111.9800033569336,110.65939331054688,720600
2020-02-24,110.5,111.20999908447266,109.16999816894531,109.20999908447266,107.92205810546875,447900
2020-02-25,109.22000122070312,109.56999969482422,106.70999908447266,106.94000244140625,105.67882537841797,641400
2020-02-26,104.0,106.55999755859375,102.7699966430664,104.68000030517578,103.44548034667969,504500
2020-02-27,103.4000015258789,104.76000213623047,101.94999694824219,102.4000015258789,101.19236755371094,670500
2020-02-28,99.7300033569336,102.20999908447266,99.31999969482422,101.06999969482422,99.87804412841797,690800
2020-03-02,101.62000274658203,103.76000213623047,100.80999755859375,103.58000183105469,102.35844421386719,331800
2020-03-03,103.79000091552734,105.72000122070312,102.19999694824219,102.76000213623047,101.5481185913086,353300
2020-03-04,105.38999938964844,107.62999725341797,104.44000244140625,107.44000244140625,106.17292022705078,294500
2020-03-05,105.33999633789062,105.80000305175781,102.63999938964844,103.9800033569336,102.75373077392578,273800
2020-03-06,101.61000061035156,107.41000366210938,101.33000183105469,107.30000305175781,106.03458404541016,624000
2020-03-09,102.73999786376953,105.0,99.4800033569336,101.44999694824219,100.25357055664062,597100
2020-03-10,103.5999984741211,103.98999786376953,99.38999938964844,103.98999786376953,102.76361083984375,522300
2020-03-11,101.66999816894531,101.66999816894531,97.91999816894531,99.08000183105469,97.91152954101562,705800
2020-03-12,92.4800033569336,96.4000015258789,87.5,94.4000015258789,93.28671264648438,843100
2020-03-13,98.08000183105469,99.44000244140625,91.12000274658203,96.38999938964844,95.25324249267578,596000
2020-03-16,87.4000015258789,94.4800033569336,87.4000015258789,87.87999725341797,86.84359741210938,667400
2020-03-17,89.94999694824219,96.94999694824219,89.4800033569336,96.44999694824219,95.31253814697266,595700
2020-03-18,91.69000244140625,96.9800033569336,90.33999633789062,96.75,95.60900115966797,762000
2020-03-19,96.48999786376953,101.22000122070312,93.58999633789062,98.87999725341797,97.71387481689453,354700
2020-03-20,98.80999755859375,99.9800033569336,89.12999725341797,92.51000213623047,91.41900634765625,727300
2020-03-23,92.05999755859375,93.23999786376953,79.83999633789062,83.93000030517578,82.940185546875,698800
2020-03-24,87.2699966430664,88.31999969482422,82.69000244140625,88.05999755859375,87.021484375,535600
2020-03-25,89.0,93.66000366210938,86.22000122070312,90.18000030517578,89.1164779663086,576200
2020-03-26,90.8499984741211,97.33999633789062,90.22000122070312,96.19999694824219,95.06548309326172,447000
2020-03-27,94.54000091552734,95.83999633789062,92.0999984741211,94.0,92.89142608642578,482000
2020-03-30,94.97000122070312,100.95999908447266,94.37000274658203,100.4800033569336,99.29501342773438,435400
2020-03-31,100.5199966430664,102.75,97.44000244140625,99.54000091552734,98.36609649658203,531000
2020-04-01,97.70999908447266,98.68000030517578,95.44000244140625,96.20999908447266,95.07537078857422,296500
2020-04-02,95.80999755859375,97.13999938964844,94.12000274658203,96.1500015258789,95.01607513427734,455700
2020-04-03,94.87999725341797,97.41999816894531,93.36000061035156,94.19000244140625,93.07919311523438,370300
2020-04-06,97.06999969482422,101.18000030517578,97.06999969482422,100.76000213623047,99.57171630859375,503200
2020-04-07,103.55000305175781,103.55000305175781,99.22000122070312,101.12000274658203,99.92745971679688,378000
2020-04-08,102.6500015258789,105.29000091552734,100.63999938964844,104.11000061035156,102.8822021484375,328500
2020-04-09,105.04000091552734,108.02999877929688,104.2300033569336,107.2699966430664,106.00492858886719,399300
2020-04-13,106.98999786376953,107.43000030517578,102.30000305175781,102.3499984741211,101.14295196533203,234000
2020-04-14,104.55999755859375,105.37000274658203,103.36000061035156,104.0199966430664,102.79325103759766,239700
2020-04-15,102.27999877929688,104.19000244140625,100.61000061035156,100.93000030517578,99.73970794677734,441400
2020-04-16,103.02999877929688,103.02999877929688,99.68000030517578,101.8499984741211,100.64884948730469,294000
2020-04-17,103.86000061035156,105.0199966430664,102.4000015258789,102.94000244140625,101.72600555419922,256200
2020-04-20,101.86000061035156,107.94000244140625,101.12999725341797,106.94000244140625,105.67882537841797,856400
2020-04-21,105.8499984741211,106.98999786376953,104.12000274658203,106.12000274658203,104.8685073852539,475500
2020-04-22,106.98999786376953,107.04000091552734,104.12000274658203,106.30000305175781,105.04637145996094,436400
2020-04-23,106.62000274658203,107.31999969482422,104.94999694824219,105.0199966430664,103.78146362304688,347600
2020-04-24,105.41000366210938,105.41000366210938,103.08999633789062,104.12000274658203,102.89208221435547,377000
2020-04-27,109.33000183105469,114.0999984741211,106.87999725341797,112.58000183105469,111.2523193359375,457700
2020-04-28,112.5999984741211,114.66000366210938,110.98999786376953,111.18000030517578,110.22127532958984,274600
2020-04-29,112.55999755859375,113.62999725341797,109.81999969482422,110.08000183105469,109.13076782226562,236600
2020-04-30,108.98999786376953,110.06999969482422,106.33999633789062,107.08000183105469,106.1566390991211,730600
2020-05-01,110.55999755859375,110.55999755859375,104.70999908447266,106.13999938964844,105.22474670410156,506200
2020-05-04,105.52999877929688,107.33000183105469,105.08000183105469,106.80999755859375,105.88896179199219,324300
2020-05-05,106.77999877929688,107.62999725341797,105.4000015258789,105.55999755859375,104.64974212646484,332500
2020-05-06,106.7699966430664,107.05000305175781,104.76000213623047,104.86000061035156,103.95578002929688,234000
2020-05-07,105.5199966430664,106.88999938964844,105.13999938964844,105.47000122070312,104.5605239868164,285200
2020-05-08,106.9800033569336,107.98999786376953,106.55999755859375,107.52999877929688,106.60275268554688,259700
2020-05-11,106.66000366210938,107.51000213623047,106.08000183105469,106.30999755859375,105.39327239990234,344000
2020-05-12,106.43000030517578,106.43000030517578,103.8499984741211,103.94999694824219,103.05361938476562,233300
2020-05-13,103.38999938964844,103.38999938964844,101.6500015258789,102.41999816894531,101.53681945800781,267100
2020-05-14,101.01000213623047,102.62000274658203,99.11000061035156,102.45999908447266,101.57646942138672,246200
2020-05-15,101.47000122070312,101.69999694824219,100.05000305175781,101.5,100.624755859375,476400
2020-05-18,104.06999969482422,105.1500015258789,102.94999694824219,104.1500015258789,103.25190734863281,304500
2020-05-19,103.79000091552734,105.75,103.16000366210938,103.7300033569336,102.83553314208984,214700
2020-05-20,104.44999694824219,105.5199966430664,104.08000183105469,104.41000366210938,103.5096664428711,146200
2020-05-21,104.44000244140625,105.70999908447266,104.44000244140625,105.08999633789062,104.18379211425781,233900
2020-05-22,104.97000122070312,105.25,103.70999908447266,105.0999984741211,104.1937026977539,151200
2020-05-26,107.33999633789062,110.19000244140625,106.77999877929688,109.55000305175781,108.60533905029297,332200
2020-05-27,111.06999969482422,112.6500015258789,110.3499984741211,112.55000305175781,111.57947540283203,290400
2020-05-28,113.33000183105469,113.33000183105469,110.94000244140625,111.5999984741211,110.63765716552734,233600
2020-05-29,111.0999984741211,111.52999877929688,109.70999908447266,111.38999938964844,110.42947387695312,215300
2020-06-01,111.27999877929688,111.87999725341797,110.5999984741211,111.41999816894531,110.4592056274414,277000
2020-06-02,111.75,112.47000122070312,110.94000244140625,112.06999969482422,111.10359954833984,224900
2020-06-03,112.69999694824219,114.0999984741211,112.69999694824219,113.27999877929688,112.30316925048828,196600
2020-06-04,113.5,113.5,111.0199966430664,112.13999938964844,111.17300415039062,182500
2020-06-05,113.80000305175781,114.27999877929688,112.91000366210938,113.4000015258789,112.42213439941406,235500
2020-06-08,112.81999969482422,114.0,112.29000091552734,113.58000183105469,112.6005859375,244700
2020-06-09,112.77999877929688,113.44999694824219,111.91000366210938,112.47000122070312,111.50016021728516,292100
2020-06-10,113.0,113.0,110.81999969482422,111.63999938964844,110.67731475830078,366600
2020-06-11,110.0,110.61000061035156,104.20999908447266,104.25,103.35103607177734,376900
2020-06-12,106.69000244140625,107.52999877929688,103.08000183105469,105.36000061035156,104.45146942138672,247300
2020-06-15,103.44000244140625,106.54000091552734,103.06999969482422,105.41000366210938,104.50103759765625,235900
2020-06-16,108.30000305175781,109.08999633789062,106.86000061035156,107.38999938964844,106.46395874023438,252600
2020-06-17,108.19000244140625,108.6500015258789,106.37000274658203,106.91000366210938,105.98809814453125,208800
2020-06-18,106.27999877929688,107.97000122070312,105.97000122070312,106.98999786376953,106.0674057006836,217800
2020-06-19,107.20999908447266,107.98999786376953,106.0999984741211,107.5999984741211,106.67214965820312,303700
2020-06-22,106.94000244140625,107.66999816894531,105.5,107.55000305175781,106.6225814819336,241900
2020-06-23,108.45999908447266,108.45999908447266,106.91999816894531,107.44000244140625,106.5135269165039,228300
2020-06-24,106.58000183105469,107.5199966430664,105.8499984741211,105.94000244140625,105.0264663696289,433900
2020-06-25,105.41000366210938,107.62999725341797,103.77999877929688,107.5999984741211,106.67214965820312,263600
2020-06-26,107.12000274658203,108.69000244140625,106.16999816894531,107.72000122070312,106.7911148071289,924200
2020-06-29,108.23999786376953,110.19000244140625,107.88999938964844,109.25,108.30792236328125,189300
2020-06-30,109.12999725341797,112.27999877929688,109.12999725341797,111.9800033569336,111.0143814086914,421800
2020-07-01,111.91000366210938,112.66999816894531,110.94999694824219,112.4800033569336,111.51007080078125,247900
2020-07-02,113.44000244140625,115.01000213623047,113.44000244140625,114.97000122070312,113.97859954833984,271400
2020-07-06,115.98999786376953,116.66000366210938,114.18000030517578,115.26000213623047,114.26609802246094,330900
2020-07-07,114.63999938964844,116.0,114.18000030517578,115.1500015258789,114.15704345703125,346500
2020-07-08,114.79000091552734,115.75,112.58999633789062,112.93000030517578,111.95618438720703,205900
2020-07-09,113.16000366210938,114.13999938964844,111.41000366210938,113.76000213623047,112.7790298461914,307200
2020-07-10,114.16999816894531,115.16999816894531,112.4000015258789,114.94999694824219,113.9587631225586,244500
2020-07-13,114.95999908447266,116.2699966430664,113.2699966430664,113.43000030517578,112.45187377929688,289000
2020-07-14,113.76000213623047,116.5,113.69000244140625,116.30999755859375,115.30703735351562,193600
2020-07-15,117.44000244140625,118.29000091552734,116.54000091552734,117.9000015258789,116.88333129882812,326900
2020-07-16,118.04000091552734,118.48999786376953,116.80000305175781,117.23999786376953,116.22901916503906,252900
2020-07-17,118.0,119.70999908447266,117.33999633789062,119.4000015258789,118.37039947509766,249000
2020-07-20,119.4000015258789,119.75,118.2699966430664,119.29000091552734,118.26134490966797,183200
2020-07-21,119.58000183105469,119.87000274658203,117.66999816894531,118.18000030517578,117.16091918945312,394300
2020-07-22,118.25,118.9800033569336,117.41000366210938,118.5,117.4781494140625,414600
2020-07-23,118.38999938964844,119.2300033569336,118.08999633789062,118.44000244140625,117.4186782836914,286700
2020-07-24,119.0,119.79000091552734,118.37999725341797,118.8499984741211,117.82514190673828,244700
2020-07-27,118.83000183105469,120.44999694824219,118.5,119.8499984741211,118.81651306152344,281800
2020-07-28,119.80999755859375,119.80999755859375,117.77999877929688,118.05000305175781,117.38463592529297,208600
2020-07-29,118.72000122070312,119.41000366210938,117.33000183105469,118.80999755859375,118.14035034179688,251200
2020-07-30,117.75,118.91000366210938,116.69999694824219,117.91000366210938,117.24542236328125,359800
2020-07-31,115.0,117.9000015258789,111.22000122070312,115.19999694824219,114.55069732666016,668100
2020-08-03,116.8499984741211,119.68000030517578,114.8499984741211,118.66000366210938,117.99120330810547,292900
2020-08-04,118.94999694824219,120.18000030517578,118.22000122070312,118.62000274658203,117.95142364501953,233100
2020-08-05,119.55999755859375,120.66999816894531,118.22000122070312,118.36000061035156,117.6928939819336,164700
2020-08-06,118.81999969482422,120.11000061035156,116.68000030517578,117.66000366210938,116.99684143066406,246500
2020-08-07,117.06999969482422,119.37000274658203,116.77999877929688,119.25,118.57787322998047,202300
2020-08-10,119.58000183105469,119.58000183105469,116.9000015258789,117.0,116.3405532836914,204700
2020-08-11,118.0199966430664,119.3499984741211,116.52999877929688,116.73999786376953,116.08201599121094,214100
2020-08-12,116.91999816894531,118.56999969482422,116.75,118.08999633789062,117.42440795898438,171800
2020-08-13,117.23999786376953,119.47000122070312,117.23999786376953,118.5199966430664,117.85198211669922,213800
2020-08-14,117.87999725341797,119.63999938964844,117.69999694824219,118.48999786376953,117.82215118408203,134600
2020-08-17,119.13999938964844,119.91999816894531,118.01000213623047,118.25,117.58351135253906,160500
2020-08-18,117.91000366210938,118.63999938964844,116.7699966430664,117.87999725341797,117.21558380126953,171500
2020-08-19,118.69999694824219,119.37000274658203,117.31999969482422,117.69000244140625,117.02667236328125,145600
2020-08-20,117.05999755859375,118.12999725341797,116.5999984741211,117.55000305175781,116.88745880126953,159400
2020-08-21,117.12000274658203,118.3499984741211,116.4000015258789,117.80000305175781,117.13604736328125,199200
2020-08-24,118.19999694824219,119.76000213623047,118.19999694824219,119.11000061035156,118.43865966796875,224000
2020-08-25,119.54000091552734,119.54000091552734,117.93000030517578,118.12999725341797,117.46417999267578,114400
2020-08-26,117.98999786376953,119.0,117.55999755859375,118.5999984741211,117.93153381347656,120000
2020-08-27,118.62999725341797,120.62000274658203,118.5,120.05000305175781,119.37336730957031,209800
2020-08-28,119.69999694824219,119.69999694824219,118.0,118.12999725341797,117.46417999267578,295200
2020-08-31,118.58000183105469,119.16000366210938,117.77999877929688,118.38999938964844,117.72272491455078,182500
2020-09-01,117.94000244140625,119.63999938964844,117.94000244140625,119.5,118.82646179199219,133900
2020-09-02,119.75,122.44000244140625,118.97000122070312,122.26000213623047,121.57090759277344,153800
2020-09-03,122.27999877929688,122.27999877929688,118.5,119.16999816894531,118.49832153320312,227200
2020-09-04,120.04000091552734,120.30000305175781,116.48999786376953,118.72000122070312,118.05085754394531,224200
2020-09-08,118.12999725341797,118.12999725341797,116.04000091552734,116.05999755859375,115.40585327148438,164600
2020-09-09,116.63999938964844,118.62999725341797,116.63999938964844,117.88999938964844,117.22553253173828,154000
2020-09-10,118.16999816894531,118.91000366210938,116.70999908447266,117.19000244140625,116.52948760986328,253500
2020-09-11,117.87999725341797,118.70999908447266,117.12999725341797,118.36000061035156,117.6928939819336,124600
2020-09-14,119.37000274658203,120.05999755859375,118.47000122070312,119.08000183105469,118.40882873535156,129000
2020-09-15,119.44000244140625,119.80000305175781,118.12000274658203,118.33000183105469,117.6630630493164,125600
2020-09-16,119.58000183105469,119.58000183105469,117.56999969482422,117.7699966430664,117.10621643066406,232000
2020-09-17,116.5,117.23999786376953,115.08000183105469,115.95999908447266,115.3064193725586,354500
2020-09-18,116.58000183105469,116.75,114.2300033569336,115.04000091552734,114.3916015625,555700
2020-09-21,113.5999984741211,114.04000091552734,111.81999969482422,113.44999694824219,112.81056213378906,251500
2020-09-22,113.97000122070312,114.66999816894531,113.55999755859375,114.33000183105469,113.68560028076172,292400
2020-09-23,114.19999694824219,114.52999877929688,111.70999908447266,112.13999938964844,111.50794219970703,172300
2020-09-24,111.9000015258789,113.16999816894531,111.16000366210938,112.26000213623047,111.62727355957031,274300
2020-09-25,111.45999908447266,112.58000183105469,111.45999908447266,112.0999984741211,111.46817016601562,254100
2020-09-28,113.16999816894531,114.22000122070312,112.04000091552734,112.36000061035156,111.7267074584961,230000
2020-09-29,112.05999755859375,113.3499984741211,111.75,112.62000274658203,111.98523712158203,230000
2020-09-30,113.2699966430664,114.05999755859375,112.5,113.19999694824219,112.56196594238281,200500
2020-10-01,113.44999694824219,114.97000122070312,113.13999938964844,113.69999694824219,113.05915069580078,166000
2020-10-02,112.30999755859375,114.18000030517578,112.30999755859375,112.8499984741211,112.21394348144531,166800
2020-10-05,113.36000061035156,114.93000030517578,113.20999908447266,114.55000305175781,113.90436553955078,151300
2020-10-06,115.01000213623047,115.9000015258789,113.91999816894531,114.55999755859375,113.91429901123047,224000
2020-10-07,115.08999633789062,116.16999816894531,114.5,114.9800033569336,114.33193969726562,173200
2020-10-08,115.80000305175781,116.79000091552734,115.5199966430664,116.5199966430664,115.8632583618164,138000
2020-10-09,118.12000274658203,118.38999938964844,116.19000244140625,116.80999755859375,116.15161895751953,148700
2020-10-12,117.05000305175781,118.83000183105469,116.69999694824219,118.04000091552734,117.37469482421875,138100
2020-10-13,117.7300033569336,118.91000366210938,117.25,117.55999755859375,116.89739227294922,159000
2020-10-14,117.5,118.02999877929688,116.04000091552734,116.44000244140625,115.7837142944336,98900
2020-10-15,114.72000122070312,116.58999633789062,114.22000122070312,116.33999633789062,115.68427276611328,116900
2020-10-16,116.70999908447266,117.2300033569336,116.19000244140625,116.3499984741211,115.6942138671875,97700
2020-10-19,116.63999938964844,116.63999938964844,114.58000183105469,115.1500015258789,114.50098419189453,113700
2020-10-20,116.05000305175781,117.55999755859375,115.22000122070312,116.95999908447266,116.30078125,192600
2020-10-21,117.2699966430664,118.76000213623047,117.2699966430664,117.73999786376953,117.07638549804688,133700
2020-10-22,117.88999938964844,118.4800033569336,116.75,118.30999755859375,117.64317321777344,164100
2020-10-23,118.75,118.97000122070312,117.4800033569336,118.3499984741211,117.68294525146484,105600
2020-10-26,117.3499984741211,117.48999786376953,115.93000030517578,117.45999908447266,116.79795837402344,114100
2020-10-27,117.16999816894531,117.19000244140625,115.61000061035156,115.6500015258789,115.35169982910156,125000
2020-10-28,114.11000061035156,114.61000061035156,112.25,112.33999633789062,112.05023193359375,170500
2020-10-29,112.30000305175781,113.0999984741211,110.33999633789062,112.94000244140625,112.64868927001953,279100
2020-10-30,116.25,116.76000213623047,113.54000091552734,114.08999633789062,113.79572296142578,377900
2020-11-02,115.16999816894531,118.29000091552734,114.66999816894531,118.19000244140625,117.8851547241211,215600
2020-11-03,118.5,121.45999908447266,118.33000183105469,119.55999755859375,119.2516098022461,242400
2020-11-04,120.0,120.0199966430664,118.0999984741211,119.05000305175781,118.74293518066406,150600
2020-11-05,120.61000061035156,123.0999984741211,120.43000030517578,122.91000366210938,122.59297943115234,185500
2020-11-06,123.58999633789062,124.61000061035156,122.47000122070312,123.5999984741211,123.28119659423828,220300
2020-11-09,127.62000274658203,128.86000061035156,122.11000061035156,123.16999816894531,122.85230255126953,336500
2020-11-10,123.38999938964844,128.8000030517578,122.94999694824219,127.61000061035156,127.28085327148438,326100
2020-11-11,127.75,127.75,124.37000274658203,125.2699966430664,124.94688415527344,194700
2020-11-12,124.23999786376953,125.20999908447266,122.58999633789062,124.2699966430664,123.949462890625,126300
2020-11-13,124.8499984741211,126.0,124.0999984741211,125.06999969482422,124.74740600585938,126300
2020-11-16,126.27999877929688,127.0,125.56999969482422,126.86000061035156,126.53278350830078,207400
2020-11-17,126.26000213623047,128.10000610351562,125.69999694824219,127.36000061035156,127.031494140625,191200
2020-11-18,127.43000030517578,127.86000061035156,125.97000122070312,126.37000274658203,126.04405212402344,173100
2020-11-19,126.69999694824219,127.62000274658203,126.0,127.2300033569336,126.9018325805664,213900
2020-11-20,127.51000213623047,128.36000061035156,127.19000244140625,127.80999755859375,127.48033142089844,237300
2020-11-23,128.05999755859375,129.1199951171875,126.4000015258789,126.86000061035156,126.53278350830078,182300
2020-11-24,128.16000366210938,128.47000122070312,126.87999725341797,127.87999725341797,127.55015563964844,237200
2020-11-25,128.47999572753906,128.47999572753906,125.7699966430664,126.29000091552734,125.9642562866211,136100
2020-11-27,126.55000305175781,127.30000305175781,126.08000183105469,127.23999786376953,126.91180419921875,67800
2020-11-30,126.79000091552734,126.93000030517578,125.69000244140625,126.31999969482422,125.99417877197266,204600
2020-12-01,127.1500015258789,128.5800018310547,126.41999816894531,127.81999969482422,127.49031066894531,165800
2020-12-02,127.36000061035156,128.0500030517578,125.72000122070312,126.26000213623047,125.93433380126953,133800
2020-12-03,126.06999969482422,127.11000061035156,125.1500015258789,125.87000274658203,125.54534149169922,138700
2020-12-04,125.4800033569336,127.80000305175781,125.4800033569336,127.68000030517578,127.35066986083984,144600
2020-12-07,127.98999786376953,128.99000549316406,127.63999938964844,128.6300048828125,128.29823303222656,115000
2020-12-08,128.2899932861328,130.89999389648438,127.94000244140625,129.19000244140625,128.85678100585938,162100
2020-12-09,129.1300048828125,130.17999267578125,128.66000366210938,129.52999877929688,129.19589233398438,144800
2020-12-10,129.47000122070312,131.08999633789062,129.02000427246094,130.47000122070312,130.1334686279297,247100
2020-12-11,129.58999633789062,131.10000610351562,129.58999633789062,130.4499969482422,130.113525390625,165800
2020-12-14,131.0500030517578,131.99000549316406,128.1999969482422,128.41000366210938,128.07879638671875,205800
2020-12-15,128.55999755859375,130.64999389648438,128.30999755859375,130.25999450683594,129.92401123046875,158200
2020-12-16,130.99000549316406,131.74000549316406,130.1999969482422,131.10000610351562,130.76185607910156,265400
2020-12-17,131.2899932861328,133.69000244140625,131.0,133.13999938964844,132.7965850830078,297700
2020-12-18,134.0,134.6699981689453,133.63999938964844,134.10000610351562,133.75411987304688,656300
2020-12-21,132.77999877929688,135.0,131.5,134.88999938964844,134.5420684814453,211700
2020-12-22,134.64999389648438,136.22000122070312,134.00999450683594,134.5,134.153076171875,257300
2020-12-23,134.52000427246094,135.75,134.4499969482422,134.52999877929688,134.18299865722656,191600
2020-12-24,135.0,136.3699951171875,134.64999389648438,135.6999969482422,135.3499755859375,84200
2020-12-28,136.19000244140625,137.13999938964844,135.05999755859375,135.67999267578125,135.3300323486328,100400
2020-12-29,136.27000427246094,136.75,134.83999633789062,135.30999755859375,134.9609832763672,94400
2020-12-30,135.91000366210938,137.36000061035156,135.4600067138672,136.38999938964844,136.0382080078125,99000
2020-12-31,136.77000427246094,137.32000732421875,135.61000061035156,136.88999938964844,136.5369110107422,169800
2021-01-04,135.9199981689453,137.97000122070312,133.67999267578125,134.0,133.6543731689453,315700
2021-01-05,134.1300048828125,135.2899932861328,133.5399932861328,133.6999969482422,133.35513305664062,260500
2021-01-06,134.22000122070312,137.97000122070312,134.22000122070312,137.72000122070312,137.36477661132812,289300
2021-01-07,137.52000427246094,140.0,136.50999450683594,139.6999969482422,139.33966064453125,192400
2021-01-08,139.57000732421875,140.6199951171875,137.75999450683594,139.07000732421875,138.7113037109375,140600
2021-01-11,139.5,139.8699951171875,138.3800048828125,138.7899932861328,138.4320068359375,115300
2021-01-12,138.80999755859375,139.22999572753906,137.08999633789062,138.14999389648438,137.7936553955078,199200
2021-01-13,137.9499969482422,139.5800018310547,136.13999938964844,138.5800018310547,138.22256469726562,245000
2021-01-14,138.5,140.7100067138672,137.52000427246094,139.4499969482422,139.09031677246094,181200
2021-01-15,139.0399932861328,141.3300018310547,138.3699951171875,138.8300018310547,138.47190856933594,149300
2021-01-19,139.5800018310547,140.6199951171875,137.25,137.25999450683594,136.9059600830078,222300
2021-01-20,137.72999572753906,140.75,137.49000549316406,140.6199951171875,140.25729370117188,254100
2021-01-21,140.27000427246094,141.1300048828125,138.00999450683594,138.11000061035156,137.75376892089844,208300
2021-01-22,137.86000061035156,138.3800048828125,137.11000061035156,138.19000244140625,137.83355712890625,227800
2021-01-25,138.16000366210938,139.9199981689453,137.85000610351562,139.57000732421875,139.2100067138672,187100
2021-01-26,139.42999267578125,140.0,137.0800018310547,138.85000610351562,138.85000610351562,125900
2021-01-27,137.52999877929688,137.52999877929688,133.14999389648438,133.25,133.25,186900
2021-01-28,134.0800018310547,135.8000030517578,133.61000061035156,135.25,135.25,165800
2021-01-29,134.42999267578125,135.36000061035156,131.82000732421875,132.97000122070312,132.97000122070312,377800
2021-02-01,134.1300048828125,134.38999938964844,131.80999755859375,134.08999633789062,134.08999633789062,184700
2021-02-02,135.0500030517578,138.1199951171875,134.74000549316406,136.94000244140625,136.94000244140625,193000
2021-02-03,136.16000366210938,137.3000030517578,135.38999938964844,136.55999755859375,136.55999755859375,134700
2021-02-04,136.1199951171875,138.39999389648438,135.0,138.0,138.0,251100
2021-02-05,139.4600067138672,140.72999572753906,138.72000122070312,140.66000366210938,140.66000366210938,177500
